i,t,side,level,formed,pivot1,pivot2,retests,squeeze_slope,pressure
1664,2021-10-07 11:59:00,1,17865.0,1325,1138,1316,3,2.677575757576068,True
1909,2021-10-08 09:49:00,1,17884.0,1896,1741,1875,0,3.752121212122063,False
4761,2021-10-20 13:36:00,-1,18310.05,4689,3692,4683,4,-2.947575757575357,True
4936,2021-10-21 10:16:00,-1,18250.0,4843,3404,4823,1,-0.7436363636362583,True
5382,2021-10-22 11:27:00,-1,18238.05,5362,5292,5351,0,-0.9266666666665215,False
5560,2021-10-22 14:25:00,-1,18077.5,5520,5185,5507,0,-5.986060606060176,False
5924,2021-10-25 14:14:00,-1,18130.05,5841,5768,5815,0,-2.0196969696972014,False
8795,2021-11-08 12:05:00,1,18012.0,8631,8371,8625,0,6.479090909090129,False
8800,2021-11-08 12:10:00,1,18038.0,7895,7823,7875,1,7.71757575757589,True
10414,2021-11-12 14:04:00,1,18099.65,9258,9136,9256,6,-0.5230303030301837,False
14265,2021-11-30 09:30:00,1,17229.75,13744,13658,13727,1,2.9112121212123254,True
16073,2021-12-06 14:38:00,-1,17000.0,14625,14391,14616,0,-1.3693939393936163,False
17609,2021-12-10 15:14:00,1,17571.65,17273,17223,17265,0,1.6369696969699052,False
19123,2021-12-16 15:28:00,1,17339.35,18990,18861,18975,2,3.275757575757754,True
19130,2021-12-17 09:20:00,-1,17233.0,19091,18946,19080,1,-13.133333333333278,True
21628,2021-12-27 13:28:00,1,17075.0,21606,21332,21590,2,2.5648484848489925,True
22143,2021-12-29 09:33:00,1,17258.8,22125,22055,22124,2,2.869999999999752,True
22390,2021-12-29 13:40:00,1,17246.2,22357,22257,22349,5,0.32818181818187914,True
25169,2022-01-10 09:59:00,1,17985.0,24337,24271,24307,5,3.3121212121210903,True
25395,2022-01-10 13:45:00,1,18018.0,25252,25185,25238,5,1.1615151515147615,True
27291,2022-01-17 14:06:00,1,18330.9,27181,27124,27163,3,0.5087878787884598,True
29525,2022-01-25 13:50:00,1,17199.0,29305,29233,29297,1,3.831818181818205,True
30609,2022-02-01 09:15:00,1,17422.0,30579,30478,30547,0,5.187272727272666,False
31282,2022-02-02 14:13:00,1,17774.7,31278,31149,31270,0,-3.063636363636288,False
32109,2022-02-07 09:15:00,-1,17475.0,31985,31920,31969,0,-2.4745454545452006,False
33498,2022-02-10 13:39:00,1,17640.0,33417,31675,33391,1,1.0287878787887812,True
35132,2022-02-17 09:38:00,-1,17276.65,35109,34878,35072,0,-6.773939393939407,False
35859,2022-02-21 09:15:00,-1,17217.35,35487,35184,35484,0,-1.7021212121208973,False
37719,2022-02-28 09:15:00,-1,16610.35,37562,37397,37549,0,-4.975757575757105,False
37719,2022-02-28 09:15:00,-1,16620.0,37679,37619,37665,0,-4.975757575757105,False
38012,2022-02-28 14:08:00,-1,16657.75,37944,37901,37934,0,-6.15393939393961,False
38251,2022-03-02 11:52:00,-1,16550.55,38224,38142,38184,1,-0.7775757575748112,True
38817,2022-03-03 15:03:00,-1,16468.0,38422,38309,38406,0,-4.649393939393339,False
40612,2022-03-10 13:43:00,-1,16611.0,40586,40374,40579,0,-4.589696969696947,False
41197,2022-03-14 10:58:00,1,16707.95,41118,40767,41096,1,1.8381818181815532,True
41225,2022-03-14 11:26:00,1,16749.0,40480,40344,40464,3,2.905151515151521,True
44265,2022-03-25 12:06:00,-1,17175.55,44188,43908,44181,1,-4.697272727273289,True
44821,2022-03-28 15:07:00,1,17263.7,44800,44709,44792,3,0.5830303030299085,True
48934,2022-04-19 14:55:00,-1,17202.25,48706,48619,48699,2,-4.704242424242601,True
50796,2022-04-26 14:42:00,-1,17128.75,50792,50756,50781,0,-0.6042424242420059,False
50979,2022-04-27 11:30:00,-1,17032.45,50961,50869,50922,0,-0.714242424242162,False
51563,2022-04-29 13:07:00,1,17389.65,51530,51476,51522,4,1.749696969697223,True
52138,2022-05-04 12:09:00,-1,16925.0,52089,51589,52086,0,-0.001515151514584532,False
53810,2022-05-10 15:01:00,-1,16250.05,53532,53464,53514,0,-4.961212121212562,False
53869,2022-05-11 09:45:00,-1,16211.3,53405,53190,53379,2,-5.546060606060885,True
54589,2022-05-13 09:15:00,1,15889.0,54488,54359,54469,0,6.108787878788327,False
56967,2022-05-23 11:23:00,1,16340.0,56842,55797,56840,5,2.846363636363818,True
57210,2022-05-23 15:26:00,-1,16166.0,56794,56721,56775,2,-1.9866666666671382,True
58748,2022-05-30 14:14:00,-1,16617.0,58682,58634,58669,0,-0.7163636363632824,False
59565,2022-06-03 09:15:00,1,16674.0,58629,58569,58598,0,6.076969696970113,False
61454,2022-06-10 09:29:00,-1,16268.6,61079,58394,61067,1,-3.246666666666222,True
61731,2022-06-10 14:06:00,-1,16200.0,61709,58250,61695,1,-3.012727272726909,True
63646,2022-06-20 14:46:00,-1,15264.05,63616,63395,63603,1,-2.413939393939035,True
64672,2022-06-23 13:07:00,-1,15387.4,64443,64366,64412,1,-0.35757575757561805,True
65108,2022-06-24 14:08:00,1,15699.55,65065,64919,65048,1,0.713939393939552,True
65190,2022-06-27 09:15:00,1,15727.0,65161,64866,65130,2,9.544848484848389,True
66614,2022-06-30 14:14:00,1,15830.6,66600,66405,66585,1,5.0533333333328585,True
67019,2022-07-01 14:44:00,1,15696.0,66998,66937,66967,0,1.554545454545059,False
68827,2022-07-08 13:37:00,1,16220.8,68805,68650,68796,0,1.3230303030303556,False
71096,2022-07-18 13:56:00,1,16253.2,71066,69262,71033,0,0.7984848484851799,False
71503,2022-07-19 14:28:00,1,16332.05,71419,71308,71391,1,1.7742424242434758,True
72297,2022-07-21 15:12:00,1,16600.0,72275,72086,72262,1,3.4693939393944024,True
72928,2022-07-25 13:13:00,1,16608.9,72906,72855,72889,0,1.6000000000003334,False
73391,2022-07-26 14:41:00,-1,16506.15,73192,72219,73182,1,-1.7863636363630024,True
75671,2022-08-03 15:11:00,1,17406.7,75331,75293,75324,4,1.29242424242559,True
77190,2022-08-11 09:15:00,1,17585.6,77138,76702,77117,0,8.224545454544907,False
80546,2022-08-24 15:11:00,1,17628.35,80349,80313,80330,1,2.629090909091604,True
81690,2022-08-30 09:15:00,1,17440.0,81605,81514,81591,0,4.731818181818187,False
81932,2022-08-30 13:17:00,1,17699.0,81315,81229,81301,7,0.8384848484856036,True
81955,2022-08-30 13:40:00,1,17729.45,81166,81114,81162,0,1.455151515151339,False
83190,2022-09-06 09:15:00,1,17725.0,83152,83026,83132,3,0.575454545455112,True
83565,2022-09-07 09:15:00,-1,17656.2,83542,83317,83520,0,-5.788787878787862,False
86433,2022-09-16 13:18:00,-1,17611.45,83926,83779,83885,2,-2.816363636364045,True
87274,2022-09-20 14:49:00,-1,17864.6,87089,87030,87071,6,-0.867575757575846,True
87817,2022-09-22 11:22:00,-1,17600.0,87706,86820,87692,3,-1.9463636363635644,True
89787,2022-09-29 12:57:00,-1,16833.7,89565,89195,89564,5,-2.1115151515152877,True
91363,2022-10-06 14:13:00,-1,17345.7,91235,91095,91217,0,-2.1775757575756125,False
91456,2022-10-07 09:31:00,-1,17258.5,91444,90970,91442,1,-3.3481818181812284,True
92502,2022-10-11 14:27:00,-1,17082.15,92457,92398,92441,0,-3.5727272727271364,False
93090,2022-10-13 11:45:00,-1,16951.0,92685,92562,92669,2,-2.76818181818163,True
94065,2022-10-18 09:15:00,1,17410.0,91341,91289,91327,0,7.228484848485006,False
96250,2022-10-27 14:25:00,-1,17684.2,96232,96154,96220,0,-2.04636363636347,False
96594,2022-10-28 13:54:00,-1,17780.0,96570,96315,96540,1,-2.9609090909081917,True
97397,2022-11-01 14:47:00,1,18188.0,97379,97341,97367,1,1.7063636363643642,True
97542,2022-11-02 10:57:00,-1,18159.8,97469,97380,97460,7,-1.6912121212118663,True
97548,2022-11-02 11:03:00,-1,18155.0,97535,97359,97508,1,-0.6660606060605877,True
98505,2022-11-04 14:30:00,1,18150.0,98197,97942,98192,0,2.2275757575754556,False
99498,2022-11-10 12:18:00,-1,18069.85,99365,98280,99350,1,-1.5581818181817981,True
99973,2022-11-11 13:58:00,1,18404.45,99951,99889,99941,0,0.9315151515152922,False
100792,2022-11-15 15:07:00,1,18445.0,100452,100334,100440,0,3.9051515151515104,False
101598,2022-11-18 09:48:00,-1,18346.0,100577,100525,100552,5,0.6624242424236916,False
104788,2022-11-30 12:58:00,1,18780.55,104744,104569,104720,2,0.27787878787951475,True
105743,2022-12-05 10:08:00,-1,18721.05,104616,104559,104604,5,-0.2687878787876301,True
105882,2022-12-05 12:27:00,1,18841.4,105692,105430,105690,3,4.840000000000083,True
106539,2022-12-07 10:54:00,-1,18680.15,106443,106075,106440,0,-5.2896969696971645,False
106545,2022-12-07 11:00:00,-1,18669.1,104191,103894,104190,2,-2.9421212121206497,True
107073,2022-12-08 13:33:00,1,18698.6,107006,106938,106997,1,-0.9439393939395179,False
109764,2022-12-19 14:39:00,1,18488.85,109300,109085,109278,0,3.1963636363647674,False
110624,2022-12-22 10:14:00,-1,18231.9,110598,109926,110589,0,-2.470303030303295,False
111443,2022-12-26 11:23:00,1,17994.9,111376,111125,111345,4,0.8893939393946796,True
111578,2022-12-26 13:38:00,1,18028.0,111505,111046,111472,0,2.2939393939397723,False
111692,2022-12-27 09:17:00,1,18106.0,111666,110969,111659,1,8.740000000000213,True
112404,2022-12-28 14:54:00,-1,18116.35,112331,112206,112307,0,-2.525757575757708,False
113623,2023-01-03 10:13:00,1,18294.4,113541,113155,113526,0,2.885454545453791,False
114452,2023-01-05 11:32:00,-1,18082.2,114374,114277,114369,3,-2.034242424242178,True
115177,2023-01-09 11:07:00,1,18192.75,114342,114230,114335,2,0.6300000000005499,True
116788,2023-01-13 12:58:00,1,18019.95,116225,116158,116210,2,1.4575757575765307,True
118847,2023-01-23 09:47:00,1,18170.8,118541,118217,118530,1,0.8730303030301751,True
120323,2023-01-30 09:23:00,1,17714.7,120315,120189,120305,1,8.871515151516094,True
121815,2023-02-03 09:15:00,1,17742.35,121622,121420,121608,0,-0.27666666666694684,False
122715,2023-02-07 11:45:00,-1,17784.0,122639,122529,122602,0,-1.3472727272728526,False
123090,2023-02-08 11:45:00,1,17927.65,122995,122163,122991,0,2.1051515151517672,False
123590,2023-02-09 13:50:00,1,17935.25,123463,123195,123449,1,1.5748484848485127,True
124082,2023-02-13 09:32:00,-1,17844.7,123946,123868,123932,1,-4.447878787879054,True
124104,2023-02-13 09:54:00,-1,17818.9,123739,123345,123724,0,-1.672121212120792,False
124612,2023-02-14 12:07:00,1,17900.5,124078,123820,124070,0,0.3190909090908981,False
126192,2023-02-20 13:27:00,-1,17893.55,126174,125835,126159,0,-1.8784848484843057,False
131625,2023-03-14 10:17:00,-1,17159.65,131578,131541,131572,1,-3.9939393939399612,True
131803,2023-03-14 13:15:00,-1,17105.0,131748,131689,131729,4,-2.6169696969696354,True
132262,2023-03-15 14:39:00,-1,17091.0,132242,131911,132220,3,-1.9551515151512735,True
132688,2023-03-17 09:15:00,1,17129.0,132644,132243,132623,0,6.398787878787545,False
133227,2023-03-20 11:59:00,-1,16919.7,133158,132345,133141,0,-4.587272727272129,False
135259,2023-03-27 14:36:00,1,17119.85,134759,134566,134749,3,-0.09787878787862611,False
137155,2023-04-05 14:57:00,1,17620.0,137140,137048,137134,0,0.9051515151525414,False
138743,2023-04-13 10:10:00,-1,17829.8,138703,138654,138693,4,-0.9499999999987009,True
140043,2023-04-19 13:05:00,-1,17678.9,140024,139960,140004,0,-1.256666666666622,False
140193,2023-04-20 09:20:00,1,17707.9,140040,139955,140026,0,6.023636363635964,False
140421,2023-04-20 13:08:00,-1,17623.0,140308,140084,140269,0,-1.3063636363635602,False
140563,2023-04-21 09:15:00,1,17665.0,140392,140335,140345,0,0.04939393939413155,False
140757,2023-04-21 12:29:00,-1,17610.95,140490,140423,140480,2,-0.44030303030329565,True
140938,2023-04-24 09:15:00,1,17671.15,140932,140879,140917,0,1.6042424242432625,False
143466,2023-05-03 13:53:00,-1,18130.05,143400,143340,143377,2,-1.7618181818179066,True
143577,2023-05-04 09:29:00,1,18165.0,143563,143419,143547,1,2.3796969696967034,True
145364,2023-05-10 14:16:00,1,18334.55,145309,145216,145284,0,2.0551515151512834,False
145742,2023-05-11 14:19:00,1,18380.0,145548,144860,145540,1,1.580303030303862,True
146228,2023-05-15 10:00:00,1,18388.75,145448,144791,145438,5,0.03757575757664989,True
146687,2023-05-16 11:24:00,-1,18389.8,146588,146283,146577,1,-1.4293939393942094,True
147723,2023-05-19 09:55:00,-1,18113.1,144313,143563,144289,4,-4.5275757575762885,True
148433,2023-05-23 09:15:00,1,18350.0,148424,148239,148410,0,1.9618181818182707,False
149134,2023-05-24 14:41:00,-1,18302.0,149107,149055,149097,0,-2.1578787878787105,False
149305,2023-05-25 11:17:00,-1,18241.0,149213,148107,149204,0,-0.058787878787978164,False
149528,2023-05-25 15:00:00,1,18305.15,149228,149165,149220,1,1.7996969696979295,True
149823,2023-05-26 13:40:00,1,18531.2,149797,149731,149774,0,1.0363636363631332,False
150684,2023-05-31 09:16:00,-1,18661.0,150532,150414,150518,1,-4.511515151515093,True
151335,2023-06-01 13:52:00,-1,18590.1,151077,150982,151073,0,-1.5112121212116132,False
151408,2023-06-01 15:05:00,-1,18577.25,151401,150904,151392,0,-1.8003030303028829,False
151418,2023-06-01 15:15:00,-1,18566.0,150889,150863,150882,2,-0.3624242424231976,True
151433,2023-06-02 09:15:00,1,18607.0,151409,151353,151401,0,3.844242424242614,False
153264,2023-06-08 14:46:00,-1,18745.45,153198,153099,153168,4,-1.0339393939398898,True
154058,2023-06-13 09:15:00,1,18707.1,153988,153506,153983,0,2.933636363636058,False
156289,2023-06-20 15:11:00,1,18864.7,155794,155743,155788,3,2.588787878788547,True
156753,2023-06-22 10:25:00,1,18906.6,156683,156606,156662,3,1.0196969696975633,True
156754,2023-06-22 10:26:00,1,18908.95,156727,156351,156699,1,1.8418181818184054,True
160111,2023-07-06 10:08:00,1,19486.0,160058,159699,160044,0,-0.123030303030346,False
160703,2023-07-07 13:45:00,-1,19403.0,160644,159416,160640,0,-1.0260606060597766,False
160784,2023-07-07 15:06:00,-1,19400.0,160732,159683,160704,2,-6.053030303030154,True
161187,2023-07-11 09:19:00,1,19480.5,160917,160763,160881,0,7.2724242424230905,False
161933,2023-07-13 09:15:00,1,19517.45,161902,161839,161879,0,2.9254545454544463,False
162597,2023-07-14 14:04:00,1,19557.2,162566,162310,162550,0,1.951515151515742,False
164571,2023-07-24 09:28:00,-1,19730.0,164541,163299,164528,7,-2.179393939392913,True
165349,2023-07-26 09:56:00,1,19786.0,164815,164785,164799,3,1.9548484848489964,True
165349,2023-07-26 09:56:00,1,19789.3,164859,164844,164856,0,1.9548484848489964,False
167404,2023-08-02 12:57:00,-1,19607.0,167361,167292,167324,3,-3.6103030303024046,True
169912,2023-08-11 11:00:00,-1,19506.65,169886,168219,169858,0,-1.053333333332417,False
171595,2023-08-18 14:03:00,1,19337.7,171490,171321,171476,0,3.2545454545454864,False
172393,2023-08-22 14:51:00,-1,19382.3,172118,172047,172097,1,-0.7439393939392995,True
172471,2023-08-23 09:54:00,-1,19365.3,172398,171863,172394,0,-2.3993939393938706,False
172626,2023-08-23 12:29:00,1,19424.9,172328,172276,172317,2,1.3615151515152233,True
172634,2023-08-23 12:37:00,1,19430.0,172095,171017,172087,3,0.39484848484922125,True
172807,2023-08-24 09:15:00,1,19505.0,170924,170528,170907,0,3.3745454545459403,False
173139,2023-08-24 14:47:00,-1,19430.2,173121,173073,173118,1,-0.7996969696962674,True
173184,2023-08-25 09:17:00,-1,19275.1,171581,171398,171544,2,-10.693939393938415,True
173633,2023-08-28 10:31:00,1,19307.0,173563,173472,173557,1,1.6160606060617189,True
175258,2023-09-01 12:36:00,1,19435.0,175228,175132,175184,0,1.133939393940232,False
176534,2023-09-06 15:07:00,1,19658.95,176222,175970,176208,0,4.7230303030302485,False
178627,2023-09-14 12:30:00,-1,20113.0,178603,178418,178576,0,-0.9057575757574342,False
179447,2023-09-18 13:40:00,-1,20205.55,179417,179364,179407,0,-1.1181818181806105,False
179815,2023-09-20 13:33:00,-1,19991.15,179723,177754,179715,1,-0.7624242424245699,True
182932,2023-10-04 09:15:00,-1,19556.35,182890,182650,182859,0,-5.464545454545974,False
183682,2023-10-06 09:15:00,1,19615.45,183445,182830,183423,0,1.0460606060611328,False
184058,2023-10-09 09:16:00,-1,19553.3,183668,183628,183655,1,-9.64878787878742,True
184608,2023-10-10 12:11:00,1,19669.0,184575,184517,184557,4,1.3175757575753795,True
184620,2023-10-10 12:23:00,1,19691.0,183988,183785,183968,1,0.5642424242426719,True
185135,2023-10-11 14:43:00,1,19865.0,185055,184977,185045,0,1.2748484848492816,False
187036,2023-10-18 15:09:00,-1,19692.4,186908,185938,186881,4,-2.7848484848478074,True
187581,2023-10-20 11:44:00,-1,19530.05,187448,187078,187432,0,-1.0103030303034144,False
187583,2023-10-20 11:46:00,-1,19521.3,184432,184274,184431,1,-2.4145454545451455,True
188276,2023-10-25 10:49:00,-1,19274.0,188251,188194,188231,0,-2.0496969696964586,False
190707,2023-11-02 13:50:00,1,19197.65,190684,190550,190683,1,0.4572727272728116,True
191182,2023-11-06 09:15:00,1,19346.0,191126,190874,191122,0,4.855454545454855,False
191707,2023-11-07 11:45:00,-1,19437.4,191596,191468,191558,0,-5.264545454545747,False
191932,2023-11-08 09:15:00,1,19490.35,191880,191538,191847,0,0.8330303030302783,False
192177,2023-11-08 13:20:00,1,19510.0,192118,192029,192079,3,1.1563636363630594,True
192643,2023-11-09 14:51:00,-1,19479.95,192347,192306,192342,6,0.2166666666674191,False
193048,2023-11-10 15:21:00,1,19478.45,192962,192900,192947,0,1.0248484848485049,False
193105,2023-11-13 10:03:00,1,19523.75,192378,192218,192356,6,2.2845454545456763,True
193432,2023-11-15 09:15:00,1,19536.5,193121,193057,193107,0,7.07060606060649,False
193753,2023-11-15 14:36:00,1,19754.0,193740,193686,193721,0,1.1066666666660807,False
194465,2023-11-17 13:58:00,-1,19799.15,194453,194242,194448,3,-1.8563636363634386,True
194675,2023-11-20 11:13:00,-1,19755.0,194619,194182,194598,2,-3.32575757575735,True
194961,2023-11-21 09:44:00,1,19839.95,194496,194415,194478,1,0.16666666666676389,True
195467,2023-11-22 11:55:00,-1,19827.0,195309,195031,195307,1,-1.6909090909094247,True
197509,2023-11-30 14:42:00,1,20138.75,197467,197203,197455,0,1.7239393939388916,False
198988,2023-12-06 14:21:00,1,21044.1,198806,198717,198786,0,2.415757575757602,False
199651,2023-12-08 12:54:00,-1,21001.0,199553,199256,199544,4,-1.3630303030312594,True
199876,2023-12-11 10:24:00,1,21109.75,199819,199508,199816,0,1.2993939393942269,False
200101,2023-12-11 14:09:00,1,21085.0,200085,199978,200074,0,1.411515151514861,False
200401,2023-12-12 12:54:00,-1,21063.75,200264,200170,200247,2,-2.6887878787883195,True
200496,2023-12-12 14:29:00,-1,21042.45,200437,200008,200407,1,-0.410909090907487,True
202723,2023-12-20 14:06:00,-1,21354.05,201411,201346,201405,1,-9.48212121212204,True
204277,2023-12-27 15:00:00,1,21628.0,202665,202597,202647,2,0.13272727272707255,True
205423,2024-01-01 15:21:00,-1,21855.0,205267,205223,205253,0,-1.9487878787879453,False
205996,2024-01-03 12:24:00,-1,21635.2,205927,205874,205904,0,-2.830303030303569,False
206709,2024-01-05 11:47:00,-1,21730.6,206670,206280,206657,0,-1.1212121212116064,False
207307,2024-01-09 09:15:00,1,21680.0,207240,207130,207221,0,5.838787878787024,False
207458,2024-01-09 11:46:00,1,21790.0,207409,207012,207397,0,0.3436363636365834,False
207694,2024-01-10 09:27:00,-1,21562.7,207685,207295,207682,0,-4.121212121211577,False
208481,2024-01-12 10:04:00,1,21818.0,206920,206639,206904,0,2.334242424242941,False
209870,2024-01-17 14:28:00,-1,21627.0,209825,208360,209821,1,-3.694242424241828,True
211510,2024-01-24 10:33:00,1,21435.0,211488,211258,211477,3,1.986666666666602,True
213475,2024-02-01 12:03:00,-1,21770.3,213449,213331,213429,1,-7.713636363635262,True
213565,2024-02-01 13:33:00,-1,21752.15,213479,213207,213475,0,-4.053333333333527,False
214288,2024-02-05 13:06:00,1,22015.8,214251,214202,214244,1,0.012727272727435823,True
214807,2024-02-07 09:15:00,1,22032.65,214310,214011,214291,0,7.866666666666898,False
214807,2024-02-07 09:15:00,1,22017.0,214766,214344,214756,0,7.866666666666898,False
214949,2024-02-07 11:37:00,-1,21945.05,214799,214694,214772,3,-4.958787878787974,True
215284,2024-02-08 10:57:00,-1,21959.85,215254,215131,215243,9,-0.6878787878775694,True
215498,2024-02-08 14:31:00,-1,21810.0,215486,215292,215482,0,-1.972727272726953,False
217480,2024-02-16 10:03:00,1,22087.95,217464,215194,217458,0,1.7496969696964624,False
217652,2024-02-16 12:55:00,1,22119.55,217618,217492,217606,0,1.7621212121214225,False
217756,2024-02-16 14:39:00,1,22126.0,217730,217658,217705,0,1.3560606060599831,False
219210,2024-02-22 13:53:00,1,22118.3,218975,218916,218963,0,3.8978787878782373,False
219310,2024-02-23 09:18:00,1,22271.05,218790,218595,218780,4,1.30303030303137,True
219557,2024-02-23 13:25:00,-1,22234.5,219406,219326,219384,0,-1.9809090909086837,False
220865,2024-02-29 10:13:00,-1,21887.1,217271,217158,217256,5,-15.616666666666775,True
221138,2024-02-29 14:46:00,1,22001.7,221101,221048,221082,2,8.319393939393942,True
221963,2024-03-04 14:15:00,1,22520.1,221879,221818,221867,3,2.5503030303035934,True
222038,2024-03-05 09:15:00,-1,22471.9,221894,221767,221882,0,-1.2130303030306901,False
222557,2024-03-06 11:39:00,-1,22350.75,222474,222168,222460,0,-4.105151515151402,False
222688,2024-03-06 13:50:00,1,22470.0,222390,222346,222385,1,3.120909090909731,True
222713,2024-03-06 14:15:00,1,22527.05,221986,221783,221978,4,1.8009090909099585,True
224188,2024-03-13 13:50:00,-1,22158.4,224168,224104,224161,2,-1.7918181818182417,True
225427,2024-03-19 09:29:00,-1,22019.15,225173,225071,225158,7,-2.1766666666662586,True
225835,2024-03-20 10:02:00,-1,21868.3,225788,225715,225772,0,-4.773333333332195,False
226004,2024-03-20 12:51:00,1,21961.65,225832,225538,225815,3,0.11848484848350865,True
226673,2024-03-22 11:30:00,1,22149.0,226643,226277,226623,1,0.1436363636371299,True
228512,2024-04-02 10:54:00,-1,22532.05,228429,228038,228420,8,-0.9172727272722745,True
228998,2024-04-03 12:45:00,1,22611.5,228446,228330,228430,0,2.226969696970767,False
228999,2024-04-03 12:46:00,1,22614.9,228314,228205,228293,2,3.0069696969704762,True
229371,2024-04-04 12:43:00,1,22539.9,229301,229249,229282,1,3.2200000000003577,True
230532,2024-04-09 13:19:00,-1,22751.0,230504,230298,230492,0,-1.902424242423907,False
230910,2024-04-10 13:22:00,1,22795.0,230788,230510,230773,0,0.2096969696979729,False
233695,2024-04-24 09:47:00,1,22423.6,231712,231665,231706,2,0.4536363636365926,True
234039,2024-04-25 09:16:00,-1,22345.05,233663,233382,233660,1,-6.815454545453965,True
234609,2024-04-26 12:31:00,-1,22615.0,234603,234526,234579,0,-1.301515151515603,False
235496,2024-04-30 14:48:00,-1,22785.65,235295,235218,235274,0,-1.8815151515136188,False
236707,2024-05-07 09:59:00,-1,22510.0,236618,236544,236608,4,-1.3666666666662102,True
237190,2024-05-08 11:47:00,1,22419.85,237016,236953,236998,0,2.101818181818488,False
237287,2024-05-08 13:24:00,1,22479.8,237267,237225,237254,2,0.07363636363604095,True
237479,2024-05-09 10:21:00,-1,22288.15,237139,237040,237115,0,-1.7439393939396846,False
239246,2024-05-15 14:48:00,1,22290.0,239221,239118,239211,0,0.21454545454491172,False
239560,2024-05-16 13:47:00,-1,22161.75,238611,238512,238596,4,-1.8839393939389892,True
240702,2024-05-22 12:18:00,1,22650.85,240627,240434,240618,0,1.8063636363635298,False
242394,2024-05-29 09:15:00,-1,22913.05,242236,241211,242223,0,-3.9030303030296007,False
243084,2024-05-30 14:30:00,-1,22511.1,240214,240083,240184,1,-2.979393939392921,True
246419,2024-06-12 13:50:00,-1,23390.0,246374,246280,246359,0,-1.9090909090908985,False
246939,2024-06-14 10:00:00,1,23432.85,246791,246678,246754,1,2.4993939393933324,True
247239,2024-06-14 15:00:00,1,23472.6,247025,246247,246949,0,0.5960606060589053,False
248714,2024-06-21 14:35:00,-1,23433.1,248642,247720,248626,0,-2.70696969696887,False
248769,2024-06-24 09:15:00,-1,23411.9,248731,247174,248716,0,-4.003636363637137,False
249144,2024-06-25 09:15:00,1,23565.35,249057,248968,249021,0,2.5039393939385746,False
249335,2024-06-25 12:26:00,1,23622.15,249190,248441,249179,1,0.9054545454545797,True
249336,2024-06-25 12:27:00,1,23632.55,248424,248271,248412,1,2.3051515151508832,True
250904,2024-07-01 13:35:00,1,24210.0,250890,250834,250870,2,3.034242424242996,True
251019,2024-07-02 09:15:00,1,24229.9,250585,250410,250564,0,1.7730303030307144,False
251020,2024-07-02 09:16:00,1,24240.0,250403,250311,250389,1,2.8927272727275093,True
255285,2024-07-18 11:36:00,-1,24542.7,255173,254440,255165,2,-3.118787878788703,True
255894,2024-07-22 09:15:00,-1,24502.55,254394,254219,254379,1,-5.316969696968883,True
256451,2024-07-23 12:17:00,-1,24381.6,255906,254023,255895,0,-1.8230303030297592,False
256451,2024-07-23 12:17:00,-1,24387.7,256394,254060,256391,0,-1.8230303030297592,False
256592,2024-07-23 14:38:00,1,24506.9,256575,256396,256564,2,9.39818181818212,True
257019,2024-07-25 09:15:00,-1,24282.6,256952,256904,256930,0,-8.039090909091088,False
258225,2024-07-30 10:36:00,1,24948.8,258194,258040,258174,1,1.5687878787873775,True
260947,2024-08-08 12:13:00,1,24292.6,260847,260803,260842,0,2.3627272727278297,False
261150,2024-08-09 09:21:00,1,24398.0,260496,260026,260476,1,34.45454545454658,True
261549,2024-08-12 09:45:00,-1,24315.0,261526,261222,261519,0,-2.489999999998794,False
262064,2024-08-13 12:05:00,-1,24311.8,261989,261865,261972,0,-3.8945454545447684,False
262486,2024-08-14 12:52:00,1,24199.2,262372,262301,262361,2,2.3442424242430167,True
263804,2024-08-21 09:50:00,1,24743.0,263746,263680,263723,1,3.98909090909119,True
264043,2024-08-21 13:49:00,1,24772.95,264013,263900,263969,1,1.4496969696957964,True
264519,2024-08-23 09:15:00,-1,24825.2,264510,264380,264462,0,-0.016060606059808746,False
264542,2024-08-23 09:38:00,-1,24807.85,264527,264186,264521,0,-2.7487878787872515,False
265393,2024-08-27 11:19:00,1,25066.6,265242,265133,265217,1,0.8687878787886314,True
266689,2024-08-30 14:10:00,1,25345.0,266596,266512,266554,4,0.7696969696977433,True
269019,2024-09-10 09:15:00,1,25020.0,268469,268343,268457,0,4.606969696970592,False
269482,2024-09-11 10:43:00,1,25098.55,269465,269424,269457,0,1.4578787878791106,False
270084,2024-09-12 14:30:00,1,25267.95,268231,268195,268215,4,1.3869696969701253,True
271355,2024-09-18 10:41:00,1,25475.0,271326,270793,271305,0,1.742424242424852,False
273144,2024-09-25 09:15:00,-1,25925.0,273143,272931,273120,0,0.14757575757575045,False
273295,2024-09-25 11:46:00,-1,25899.85,272777,272691,272769,1,-4.287575757575348,True
278417,2024-10-16 09:38:00,1,25136.0,278342,278291,278334,3,3.390303030303076,True
278526,2024-10-16 11:27:00,-1,25032.6,277644,277575,277621,1,-0.22575757575862415,True
278789,2024-10-17 09:35:00,-1,24969.5,278557,276205,278547,1,-0.561818181817865,True
279288,2024-10-18 11:39:00,1,24861.05,279144,279083,279129,1,4.179696969696576,True
279289,2024-10-18 11:40:00,1,24873.3,279013,278928,278993,1,6.220303030303122,True
280090,2024-10-22 12:31:00,-1,24693.05,280083,279969,280054,1,-5.560303030303109,True
284288,2024-11-07 13:44:00,-1,24289.0,284163,284094,284147,0,-1.9627272727276899,False
286271,2024-11-18 09:17:00,-1,23563.45,286247,286012,286246,1,-0.3036363636351078,True
286718,2024-11-19 10:29:00,1,23804.95,285815,285684,285795,1,7.86151515151471,True
287367,2024-11-21 15:03:00,-1,23335.5,287260,287107,287244,4,0.6509090909086204,False
287679,2024-11-22 14:00:00,1,23825.0,286933,286885,286904,0,4.613333333332644,False
287875,2024-11-25 11:01:00,1,24339.8,287813,284982,287784,0,0.2203030303028071,False
288704,2024-11-27 12:20:00,1,24244.45,288690,288557,288684,0,2.5739393939395216,False
288794,2024-11-27 13:50:00,1,24365.0,288778,287896,288770,2,1.262424242424791,True
290277,2024-12-03 13:33:00,1,24561.75,290251,290184,290230,0,1.9427272727280909,False
290945,2024-12-05 12:11:00,1,24639.2,290698,290477,290687,2,19.047575757576602,True
291051,2024-12-05 13:57:00,1,24746.8,291021,290953,291009,7,0.11878787878800139,True
292074,2024-12-10 12:15:00,-1,24680.0,291894,291834,291867,4,-3.185454545455058,True
293286,2024-12-13 13:42:00,1,24765.85,292675,292526,292665,0,3.685454545454466,False
294927,2024-12-20 09:49:00,-1,23921.0,294914,294536,294896,0,-12.633030303031191,False
296905,2024-12-30 11:32:00,1,24010.0,296873,296767,296863,0,4.546666666667134,False
297143,2024-12-31 09:15:00,-1,23771.75,297133,297075,297126,0,-5.9772727272730455,False
297341,2024-12-31 12:33:00,1,23776.95,297314,297263,297293,3,0.984242424242984,True
298083,2025-01-02 12:25:00,1,24079.0,298047,296923,298028,0,3.509696969698266,False
298921,2025-01-06 13:53:00,-1,23707.0,297574,297314,297558,2,-3.3563636363639886,True
300439,2025-01-10 14:11:00,-1,23550.1,300419,300318,300398,0,-2.2051515151517167,False
302018,2025-01-17 09:15:00,-1,23353.0,302012,301774,301996,0,1.404545454545777,False
302112,2025-01-17 10:49:00,-1,23237.6,302062,302023,302046,0,-3.4203030303029758,False
302113,2025-01-17 10:50:00,-1,23199.3,301590,300957,301538,1,-5.931515151514279,True
302515,2025-01-20 11:17:00,1,23342.25,302396,302203,302393,0,1.9069696969698324,False
302633,2025-01-20 13:15:00,1,23425.65,302621,302543,302580,0,1.2193939393940254,False
302792,2025-01-21 09:39:00,-1,23382.0,302633,302567,302622,3,-5.7090909090909285,True
303013,2025-01-21 13:20:00,-1,23174.2,302989,302838,302963,0,-7.27363636363677,False
304039,2025-01-24 11:41:00,1,23324.0,303067,302996,303023,2,1.164545454545788,True
304478,2025-01-27 12:45:00,-1,22865.75,304457,304417,304447,0,-5.2893939393933955,False
304749,2025-01-28 11:01:00,1,22968.6,304661,304437,304643,0,2.529393939394552,False
305667,2025-01-30 13:49:00,-1,23213.0,305580,305534,305574,0,-1.8154545454548057,False
306159,2025-02-01 09:31:00,1,23644.0,306145,306020,306142,0,4.6609090909091435,False
306298,2025-02-01 11:50:00,-1,23611.2,306263,306193,306250,0,-2.993636363636146,False
307918,2025-02-06 13:50:00,-1,23675.2,307891,307201,307867,0,-2.1475757575766683,False
309056,2025-02-11 14:03:00,-1,23088.95,309038,309007,309027,0,-3.2639393939385277,False
309358,2025-02-12 12:50:00,1,23188.0,309335,309108,309306,1,3.023636363636854,True
310527,2025-02-17 13:34:00,1,22975.0,310506,310433,310494,0,1.666666666666244,False
311055,2025-02-19 09:52:00,1,23008.15,311003,310679,310981,2,8.258484848484946,True
311669,2025-02-20 13:51:00,1,22950.0,311545,311461,311517,2,0.8857575757578958,True
311768,2025-02-21 09:15:00,-1,22910.25,311599,311497,311545,5,-1.8839393939400368,True
311826,2025-02-21 10:13:00,-1,22830.0,310333,310269,310309,1,-2.637272727272131,True
312032,2025-02-21 13:39:00,-1,22781.6,311905,311829,311882,0,-1.3666666666655205,False
312890,2025-02-25 15:27:00,-1,22564.8,312659,312529,312654,1,-2.7809090909095673,True
315686,2025-03-10 12:03:00,-1,22664.95,315658,315591,315648,1,-2.0175757575749174,True
315822,2025-03-10 14:19:00,-1,22580.05,315534,315175,315521,0,-3.8324242424241346,False
317028,2025-03-17 09:25:00,1,22616.35,316725,316268,316708,0,5.7566666666665345,False
319134,2025-03-24 13:16:00,1,23669.0,319115,319002,319088,0,2.0342424242427715,False
319673,2025-03-26 09:45:00,-1,23665.0,319432,319240,319424,3,-2.3257575757574163,True
320067,2025-03-27 10:04:00,1,23609.9,319961,319895,319934,1,2.022727272727305,True
322188,2025-05-08 14:10:00,-1,24378.4,321596,320753,321583,2,-1.048484848484342,True
322643,2025-05-12 09:15:00,1,24576.4,321146,321086,321143,0,4.1460606060617415,False
322643,2025-05-12 09:15:00,1,24491.0,322102,321964,322028,0,4.1460606060617415,False
323092,2025-05-13 10:29:00,-1,24757.6,322759,322701,322746,2,-8.32969696969694,True
324803,2025-05-19 14:00:00,-1,25015.8,324520,324323,324518,0,-1.0224242424232315,False
325857,2025-05-22 12:49:00,-1,24581.5,325687,323609,325663,2,-2.9139393939396205,True
326735,2025-05-26 14:57:00,1,25040.0,326727,326673,326712,1,2.3115151515162267,True
327625,2025-05-29 11:02:00,-1,24744.0,327518,327203,327517,2,-2.090303030302673,True
329564,2025-06-05 12:06:00,1,24929.0,328646,328175,328643,0,9.567272727272483,False
329784,2025-06-06 09:31:00,-1,24813.2,329712,329547,329689,3,-2.140606060606357,True
331356,2025-06-12 10:43:00,-1,25140.0,331340,330893,331314,0,-1.0115151515162917,False
333146,2025-06-19 09:18:00,-1,24786.0,333085,332982,333077,1,-0.5187878787884017,True
333162,2025-06-19 09:34:00,1,24854.4,333128,332942,333114,0,1.8836363636357276,False
334516,2025-06-24 13:23:00,-1,25187.0,334481,334364,334477,1,-4.0387878787868425,True
335786,2025-06-30 09:33:00,-1,25723.2,335780,335643,335772,2,-4.267878787878641,True
338792,2025-07-10 09:39:00,-1,25500.1,337879,337826,337868,5,-0.48909090909211894,True
339113,2025-07-10 15:00:00,-1,25425.2,338955,338897,338945,1,-1.9333333333331748,True
340270,2025-07-16 09:17:00,-1,25222.0,340246,340185,340235,2,-7.179393939393178,True
341019,2025-07-18 09:16:00,-1,25150.1,339953,339874,339924,0,-0.7818181818191912,False
341398,2025-07-21 09:20:00,-1,24981.0,341213,341123,341201,0,-4.607272727271778,False
343268,2025-07-28 09:15:00,-1,24831.0,343160,343082,343152,0,-2.5678787878789593,False
343328,2025-07-28 10:15:00,1,24894.0,343297,343172,343288,0,3.956969696970147,False
345970,2025-08-06 10:35:00,-1,24652.0,345956,345775,345939,0,-1.7048484848476901,False
347144,2025-08-11 11:24:00,1,24539.0,347132,346908,347114,2,4.287878787879218,True
347430,2025-08-12 09:55:00,1,24721.0,346640,345957,346636,2,1.4854545454549792,True
347690,2025-08-12 14:15:00,-1,24590.4,347552,347503,347545,0,-2.9600000000001225,False
348515,2025-08-18 09:15:00,1,24748.3,348185,348054,348171,0,12.761212121213049,False
349382,2025-08-20 11:12:00,1,25048.9,349369,349217,349354,0,2.3927272727277997,False
351140,2025-08-28 09:15:00,-1,24666.3,348515,348295,348514,0,-1.1006060606056616,False
351149,2025-08-28 09:24:00,-1,24539.9,347765,347252,347740,1,-10.990303030302563,True
352079,2025-09-01 12:24:00,1,24693.0,352042,351930,352027,1,0.7866666666673854,True
352642,2025-09-03 09:17:00,-1,24651.9,352593,352049,352579,0,-0.3381818181809149,False
353966,2025-09-08 12:36:00,1,24949.8,353190,353121,353186,1,1.8684848484854488,True
354515,2025-09-10 09:15:00,1,24979.0,354096,353971,354084,0,4.142424242424685,False
354515,2025-09-10 09:15:00,1,24969.0,354469,354147,354452,0,4.142424242424685,False
358721,2025-09-25 10:36:00,-1,25050.0,358645,354945,358641,0,-1.6200000000000687,False
359255,2025-09-26 13:15:00,-1,24801.6,359229,359166,359212,0,-3.335757575757323,False
362320,2025-10-09 14:20:00,-1,25235.2,362269,362188,362241,1,-3.4824242424237104,True
362392,2025-10-10 09:17:00,1,25291.0,362176,361667,362157,3,-0.23212121211985837,False
363582,2025-10-15 10:22:00,1,25370.0,363539,363148,363530,0,1.612727272728025,False
365076,2025-10-23 09:15:00,1,25969.9,365020,364641,365015,0,4.676969696969535,False
365527,2025-10-24 10:31:00,-1,25863.0,364993,364787,364971,3,-1.589090909090155,True
366247,2025-10-28 10:01:00,-1,25975.6,366219,366125,366206,1,-4.0981818181818275,True
368087,2025-11-04 09:26:00,-1,25845.1,367912,367762,367882,0,-3.8066666666669513,False
369887,2025-11-11 14:26:00,1,25805.3,368462,368261,368456,0,3.652727272728294,False
371076,2025-11-17 09:15:00,1,25980.3,370737,370687,370721,9,1.4896969696961981,True
372944,2025-11-21 15:23:00,-1,26071.6,372681,372230,372642,5,-1.4557575757568813,True
373244,2025-11-24 14:08:00,-1,26061.3,372951,372194,372945,0,-1.940000000000386,False
375423,2025-12-02 12:57:00,-1,26213.9,375401,375263,375368,2,-1.6593939393944914,True
376945,2025-12-08 13:19:00,-1,26156.3,376411,376371,376401,1,-1.7630303030312438,True
379671,2025-12-17 15:00:00,1,25896.0,379638,379579,379631,0,0.6139393939384526,False
379701,2025-12-18 09:15:00,-1,25860.0,379664,379607,379651,0,-0.3527272727271105,False
383137,2026-01-01 10:16:00,-1,26285.0,383076,382965,383060,4,-2.693939393938934,True
383806,2026-01-02 15:10:00,1,26450.0,383768,383650,383761,7,0.48909090909181124,True
384495,2026-01-06 14:09:00,-1,26270.0,384344,383259,384328,0,-1.212121212120236,False
384915,2026-01-07 14:54:00,1,26229.6,384910,384813,384905,1,0.2733333333349632,True
387414,2026-01-19 12:48:00,-1,25550.0,387383,387327,387376,6,0.7490909090900267,False
388644,2026-01-22 14:33:00,1,25311.0,388533,388457,388511,0,8.61272727272693,False
388688,2026-01-22 15:17:00,1,25360.0,388672,388409,388660,2,3.0787878787892735,True
388942,2026-01-23 13:16:00,-1,25200.0,388638,388582,388629,1,-1.8400000000003014,True
390480,2026-01-30 13:54:00,1,25411.3,390430,390307,390391,0,1.5206060606076,False
390689,2026-02-01 11:08:00,1,25468.8,390683,390496,390656,0,-0.3878787878789409,False
392369,2026-02-05 14:08:00,-1,25695.0,392348,392275,392330,0,-2.5339393939386006,False
392909,2026-02-09 10:38:00,1,25906.7,392850,391598,392826,0,1.615151515151292,False
394087,2026-02-12 11:31:00,-1,25883.1,393992,393046,393967,2,-0.5824242424254403,True
395747,2026-02-18 14:11:00,1,25768.0,395719,395451,395700,0,1.8981818181824353,False
395748,2026-02-18 14:12:00,1,25777.0,395356,395295,395338,1,2.8781818181826893,True
396966,2026-02-24 09:30:00,-1,25540.0,396576,396437,396567,0,-1.1896969696959054,False
398076,2026-02-27 09:15:00,-1,25538.0,397998,397943,397994,0,-3.489696969695993,False
399524,2026-03-05 14:38:00,1,24760.0,399463,399303,399399,0,4.658787878787551,False
399857,2026-03-06 13:56:00,-1,24667.0,399838,399671,399837,1,-1.3424242424253372,True
400716,2026-03-11 09:30:00,-1,24303.0,400660,400612,400645,5,-7.471515151514483,True
402951,2026-03-19 09:15:00,-1,23373.0,402357,402213,402342,0,-19.110303030302493,False
405201,2026-03-30 09:15:00,-1,22617.0,404193,404160,404180,0,-12.219393939393052,False
405202,2026-03-30 09:16:00,-1,22480.0,404076,403938,404052,1,-25.89030303030279,True
405315,2026-03-30 11:09:00,-1,22470.8,405217,403892,405202,0,-0.1321212121207168,False
406540,2026-04-06 12:49:00,1,22825.9,406353,406312,406348,1,10.447272727273495,True
408110,2026-04-10 13:59:00,1,24080.3,408041,407897,408017,1,2.448484848485398,True
409631,2026-04-17 14:20:00,1,24331.4,409491,409065,409487,6,0.16969696969704146,True
410735,2026-04-22 13:59:00,1,24439.7,410665,410590,410621,1,2.8557575757581923,True
410826,2026-04-23 09:15:00,-1,24265.8,409706,409549,409702,0,-12.271515151516176,False
411981,2026-04-28 09:45:00,1,24140.0,411951,411818,411919,1,4.99878787878708,True
412211,2026-04-28 13:35:00,-1,23980.2,411954,411720,411951,0,-6.603030303030315,False
413455,2026-06-03 09:19:00,-1,23358.7,413274,413179,413256,3,-36.69393939393962,True
414576,2026-06-08 09:15:00,-1,23350.0,414488,413682,414469,0,-14.515151515151535,False
415270,2026-06-09 14:34:00,1,23270.0,415232,415152,415219,6,2.0818181818193504,True
415702,2026-06-11 09:16:00,-1,23143.9,415092,414948,415081,1,-7.639999999999567,True
416365,2026-06-12 14:04:00,1,23580.0,414324,413796,414312,1,1.4006060606067752,True
416413,2026-06-12 14:52:00,1,23646.7,413398,413335,413384,3,3.222424242424529,True
416908,2026-06-16 10:37:00,1,23985.0,416787,416688,416771,0,2.515151515151937,False
417923,2026-06-18 15:02:00,1,24153.9,417870,417616,417834,1,3.7090909090922897,True
417951,2026-06-19 09:15:00,-1,24024.0,417540,417441,417516,0,-8.421212121212944,False
418159,2026-06-19 12:43:00,-1,23980.0,418070,417966,418063,3,-1.8266666666659195,True
418927,2026-06-23 13:01:00,-1,23949.0,418298,418183,418295,5,-1.2066666666664936,True
419046,2026-06-23 15:00:00,-1,23882.0,418998,416809,418961,0,0.8642424242426209,False
419985,2026-06-29 11:54:00,-1,24027.9,419855,419435,419847,3,-1.9987878787867073,True
420489,2026-06-30 14:03:00,-1,23920.0,420467,420398,420447,0,-2.8909090909083295,False
420546,2026-06-30 15:00:00,-1,23866.0,420510,420236,420504,0,-3.995757575757129,False
420951,2026-07-02 09:15:00,1,24142.0,420898,420779,420876,0,4.379393939394063,False
425107,2026-07-17 09:46:00,1,24220.0,424834,424466,424808,1,1.8224242424245882,True
425376,2026-07-17 14:15:00,1,24275.0,425167,423916,425153,1,4.504242424243311,True
426576,2026-07-23 09:15:00,-1,23955.0,426560,426453,426518,0,-5.409090909090157,False
426951,2026-07-24 09:15:00,-1,23808.6,426922,426818,426913,0,-7.250303030302781,False
428046,2026-07-28 15:00:00,-1,23962.3,427962,427756,427942,0,-0.44181818181787175,False
430575,2026-08-06 13:24:00,-1,24703.2,430554,430476,430548,2,-0.6272727272731908,True
430615,2026-08-06 14:04:00,1,24735.0,430600,430557,430588,1,2.047272727273203,True
430701,2026-08-07 09:15:00,-1,24692.0,430610,430375,430602,0,-3.7206060606060776,False
432844,2026-08-14 13:43:00,1,24420.9,432835,432632,432801,2,3.104242424241896,True
432951,2026-08-17 09:15:00,-1,24370.0,432748,432592,432719,0,-2.9290909090901653,False
434930,2026-08-24 10:59:00,-1,24275.9,434765,434658,434746,0,-0.48181818181861225,False
435517,2026-08-25 14:31:00,1,24219.0,435229,435149,435220,0,2.037575757575506,False
437105,2026-09-01 09:44:00,-1,24171.0,436838,436743,436818,4,-2.8557575757581026,True
437743,2026-09-02 14:07:00,1,24027.0,437727,437527,437702,5,1.4036363636369373,True
438176,2026-09-03 15:05:00,-1,24009.7,438139,438076,438099,8,-1.44363636363606,True
438576,2026-09-07 09:15:00,-1,23980.0,438202,437727,438200,0,-2.7533333333333796,False
438585,2026-09-07 09:24:00,-1,23941.0,437627,437460,437620,6,-2.321212121211269,True
441251,2026-09-17 10:05:00,1,23345.9,441228,441060,441222,0,2.10787878788013,False
441316,2026-09-17 11:10:00,-1,23250.0,441128,440994,441095,5,-5.867272727272774,True
441871,2026-09-18 14:10:00,1,23380.0,441843,441576,441806,1,2.663030303030541,True
442109,2026-09-21 11:53:00,1,23418.0,441930,441389,441920,5,0.2696969696977762,True
442872,2026-09-23 12:06:00,1,23475.0,442403,442235,442382,1,3.3903030303027912,True
443077,2026-09-24 09:16:00,-1,23281.3,442625,441461,442612,1,-14.716969696968967,True
443737,2026-09-25 14:01:00,1,23150.0,443616,443509,443577,0,4.290909090910155,False
